angle,rsp
0,-11.0333
0.25,-11.0337
0.5,-11.0352
0.75,-11.0375
1,-11.0409
1.25,-11.0452
1.5,-11.0504
1.75,-11.0566
2,-11.0638
2.25,-11.072
2.5,-11.0811
2.75,-11.0911
3,-11.1022
3.25,-11.1142
3.5,-11.1272
3.75,-11.1412
4,-11.1562
4.25,-11.1721
4.5,-11.1891
4.75,-11.2071
5,-11.226
5.25,-11.246
5.5,-11.2669
5.75,-11.2888
6,-11.3118
6.25,-11.3357
6.5,-11.3606
6.75,-11.3865
7,-11.4133
7.25,-11.4411
7.5,-11.4698
7.75,-11.4994
8,-11.5298
8.25,-11.5611
8.5,-11.5932
8.75,-11.626
9,-11.6594
9.25,-11.6935
9.5,-11.728
9.75,-11.7629
10,-11.7981
10.25,-11.8335
10.5,-11.8687
10.75,-11.9038
11,-11.9385
11.25,-11.9726
11.5,-12.0058
11.75,-12.0378
12,-12.0684
12.25,-12.0973
12.5,-12.1241
12.75,-12.1485
13,-12.1701
13.25,-12.1887
13.5,-12.2039
13.75,-12.2154
14,-12.2229
14.25,-12.2263
14.5,-12.2254
14.75,-12.2201
15,-12.2104
15.25,-12.1962
15.5,-12.1778
15.75,-12.1552
16,-12.1287
16.25,-12.0986
16.5,-12.0652
16.75,-12.0286
17,-11.9894
17.25,-11.9479
17.5,-11.9043
17.75,-11.8589
18,-11.8122
18.25,-11.7644
18.5,-11.7156
18.75,-11.6663
19,-11.6166
19.25,-11.5667
19.5,-11.5167
19.75,-11.4669
20,-11.4173
20.25,-11.368
20.5,-11.3193
20.75,-11.2711
21,-11.2235
21.25,-11.1766
21.5,-11.1305
21.75,-11.0851
22,-11.0405
22.25,-10.9968
22.5,-10.954
22.75,-10.912
23,-10.8709
23.25,-10.8307
23.5,-10.7915
23.75,-10.7531
24,-10.7157
24.25,-10.6791
24.5,-10.6435
24.75,-10.6088
25,-10.575
25.25,-10.5421
25.5,-10.5101
25.75,-10.479
26,-10.4488
26.25,-10.4194
26.5,-10.3909
26.75,-10.3633
27,-10.3365
27.25,-10.3105
27.5,-10.2854
27.75,-10.2611
28,-10.2377
28.25,-10.215
28.5,-10.1932
28.75,-10.1721
29,-10.1519
29.25,-10.1325
29.5,-10.1138
29.75,-10.0959
30,-10.0788
30.25,-10.0624
30.5,-10.0469
30.75,-10.032
31,-10.018
31.25,-10.0047
31.5,-9.99211
31.75,-9.9803
32,-9.96924
32.25,-9.95892
32.5,-9.94934
32.75,-9.9405
33,-9.9324
33.25,-9.92504
33.5,-9.91843
33.75,-9.91255
34,-9.90741
34.25,-9.90302
34.5,-9.89936
34.75,-9.89646
35,-9.8943
35.25,-9.89289
35.5,-9.89223
35.75,-9.89234
36,-9.8932
36.25,-9.89483
36.5,-9.89723
36.75,-9.90041
37,-9.90437
37.25,-9.90913
37.5,-9.91468
37.75,-9.92103
38,-9.92821
38.25,-9.9362
38.5,-9.94503
38.75,-9.9547
39,-9.96523
39.25,-9.97663
39.5,-9.9889
39.75,-10.0021
40,-10.0162
40.25,-10.0312
40.5,-10.0471
40.75,-10.064
41,-10.0819
41.25,-10.1008
41.5,-10.1207
41.75,-10.1417
42,-10.1637
42.25,-10.1869
42.5,-10.2111
42.75,-10.2366
43,-10.2632
43.25,-10.291
43.5,-10.3201
43.75,-10.3505
44,-10.3822
44.25,-10.4153
44.5,-10.4499
44.75,-10.486
45,-10.5236
45.25,-10.5628
45.5,-10.6037
45.75,-10.6463
46,-10.6907
46.25,-10.7371
46.5,-10.7855
46.75,-10.8359
47,-10.8886
47.25,-10.9436
47.5,-11.0011
47.75,-11.0612
48,-11.124
48.25,-11.1898
48.5,-11.2587
48.75,-11.3309
49,-11.4068
49.25,-11.4864
49.5,-11.5703
49.75,-11.6586
50,-11.7518
50.25,-11.8504
50.5,-11.9547
50.75,-12.0654
51,-12.1831
51.25,-12.3084
51.5,-12.4423
51.75,-12.5857
52,-12.7395
52.25,-12.9048
52.5,-13.0828
52.75,-13.2743
53,-13.4798
53.25,-13.6984
53.5,-13.9269
53.75,-14.1568
54,-14.3714
54.25,-14.5425
54.5,-14.6351
54.75,-14.6233
55,-14.5099
55.25,-14.3239
55.5,-14.1001
55.75,-13.8646
56,-13.6325
56.25,-13.4111
56.5,-13.203
56.75,-13.0089
57,-12.8283
57.25,-12.66
57.5,-12.503
57.75,-12.3564
58,-12.2189
58.25,-12.0899
58.5,-11.9684
58.75,-11.8537
59,-11.7453
59.25,-11.6425
59.5,-11.5449
59.75,-11.4522
60,-11.3638
60.25,-11.2795
60.5,-11.1989
60.75,-11.1218
61,-11.0481
61.25,-10.9773
61.5,-10.9095
61.75,-10.8443
62,-10.7816
62.25,-10.7213
62.5,-10.6633
62.75,-10.6074
63,-10.5535
63.25,-10.5016
63.5,-10.4514
63.75,-10.4031
64,-10.3563
64.25,-10.3112
64.5,-10.2676
64.75,-10.2255
65,-10.1848
65.25,-10.1454
65.5,-10.1073
65.75,-10.0704
66,-10.0348
66.25,-10.0003
66.5,-9.96696
66.75,-9.93469
67,-9.90346
67.25,-9.87325
67.5,-9.84403
67.75,-9.81576
68,-9.78842
68.25,-9.76197
68.5,-9.7364
68.75,-9.71168
69,-9.68779
69.25,-9.66471
69.5,-9.64241
69.75,-9.62087
70,-9.60008
70.25,-9.58002
70.5,-9.56067
70.75,-9.54201
71,-9.52403
71.25,-9.50671
71.5,-9.49004
71.75,-9.474
72,-9.45858
72.25,-9.44376
72.5,-9.42954
72.75,-9.4159
73,-9.40282
73.25,-9.3903
73.5,-9.37833
73.75,-9.36689
74,-9.35597
74.25,-9.34556
74.5,-9.33566
74.75,-9.32625
75,-9.31731
75.25,-9.30886
75.5,-9.30086
75.75,-9.29332
76,-9.28622
76.25,-9.27956
76.5,-9.27332
76.75,-9.26751
77,-9.2621
77.25,-9.25709
77.5,-9.25247
77.75,-9.24824
78,-9.24439
78.25,-9.2409
78.5,-9.23777
78.75,-9.23499
79,-9.23255
79.25,-9.23045
79.5,-9.22868
79.75,-9.22722
80,-9.22608
80.25,-9.22524
80.5,-9.22469
80.75,-9.22443
81,-9.22444
81.25,-9.22473
81.5,-9.22528
81.75,-9.22608
82,-9.22713
82.25,-9.22841
82.5,-9.22993
82.75,-9.23166
83,-9.23361
83.25,-9.23576
83.5,-9.23811
83.75,-9.24064
84,-9.24336
84.25,-9.24624
84.5,-9.24929
84.75,-9.25248
85,-9.25582
85.25,-9.2593
85.5,-9.26291
85.75,-9.26663
86,-9.27046
86.25,-9.27439
86.5,-9.27842
86.75,-9.28253
87,-9.28671
87.25,-9.29096
87.5,-9.29527
87.75,-9.29963
88,-9.30403
88.25,-9.30846
88.5,-9.31292
88.75,-9.31739
89,-9.32187
89.25,-9.32635
89.5,-9.33082
89.75,-9.33528
90,-9.33972
90.25,-9.34412
90.5,-9.34849
90.75,-9.35282
91,-9.35709
91.25,-9.36131
91.5,-9.36546
91.75,-9.36955
92,-9.37356
92.25,-9.37749
92.5,-9.38133
92.75,-9.38509
93,-9.38875
93.25,-9.39231
93.5,-9.39576
93.75,-9.39911
94,-9.40236
94.25,-9.40548
94.5,-9.4085
94.75,-9.41139
95,-9.41416
95.25,-9.41682
95.5,-9.41935
95.75,-9.42175
96,-9.42403
96.25,-9.42619
96.5,-9.42822
96.75,-9.43012
97,-9.4319
97.25,-9.43355
97.5,-9.43508
97.75,-9.43649
98,-9.43778
98.25,-9.43895
98.5,-9.44
98.75,-9.44093
99,-9.44175
99.25,-9.44246
99.5,-9.44306
99.75,-9.44355
100,-9.44394
100.25,-9.44423
100.5,-9.44441
100.75,-9.4445
101,-9.4445
101.25,-9.44441
101.5,-9.44422
101.75,-9.44396
102,-9.4436
102.25,-9.44317
102.5,-9.44266
102.75,-9.44207
103,-9.44141
103.25,-9.44068
103.5,-9.43988
103.75,-9.43902
104,-9.43808
104.25,-9.43709
104.5,-9.43603
104.75,-9.4349
105,-9.43372
105.25,-9.43248
105.5,-9.43118
105.75,-9.42982
106,-9.42841
106.25,-9.42694
106.5,-9.42541
106.75,-9.42382
107,-9.42217
107.25,-9.42046
107.5,-9.4187
107.75,-9.41687
108,-9.41498
108.25,-9.41303
108.5,-9.41101
108.75,-9.40893
109,-9.40678
109.25,-9.40456
109.5,-9.40227
109.75,-9.3999
110,-9.39745
110.25,-9.39493
110.5,-9.39232
110.75,-9.38964
111,-9.38686
111.25,-9.384
111.5,-9.38104
111.75,-9.378
112,-9.37485
112.25,-9.37161
112.5,-9.36827
112.75,-9.36482
113,-9.36127
113.25,-9.35762
113.5,-9.35385
113.75,-9.34997
114,-9.34598
114.25,-9.34188
114.5,-9.33767
114.75,-9.33334
115,-9.32889
115.25,-9.32433
115.5,-9.31965
115.75,-9.31485
116,-9.30994
116.25,-9.30492
116.5,-9.29978
116.75,-9.29453
117,-9.28917
117.25,-9.2837
117.5,-9.27812
117.75,-9.27245
118,-9.26667
118.25,-9.2608
118.5,-9.25483
118.75,-9.24878
119,-9.24264
119.25,-9.23643
119.5,-9.23014
119.75,-9.22378
120,-9.21736
120.25,-9.21089
120.5,-9.20436
120.75,-9.19779
121,-9.19119
121.25,-9.18456
121.5,-9.1779
121.75,-9.17124
122,-9.16457
122.25,-9.1579
122.5,-9.15124
122.75,-9.1446
123,-9.13799
123.25,-9.13142
123.5,-9.12489
123.75,-9.11842
124,-9.11201
124.25,-9.10568
124.5,-9.09943
124.75,-9.09327
125,-9.08722
125.25,-9.08128
125.5,-9.07546
125.75,-9.06977
126,-9.06423
126.25,-9.05884
126.5,-9.0536
126.75,-9.04854
127,-9.04366
127.25,-9.03897
127.5,-9.03449
127.75,-9.03021
128,-9.02615
128.25,-9.02233
128.5,-9.01874
128.75,-9.0154
129,-9.01233
129.25,-9.00952
129.5,-9.00699
129.75,-9.00476
130,-9.00282
130.25,-9.00119
130.5,-8.99987
130.75,-8.99889
131,-8.99824
131.25,-8.99794
131.5,-8.998
131.75,-8.99843
132,-8.99923
132.25,-9.00042
132.5,-9.002
132.75,-9.00399
133,-9.0064
133.25,-9.00923
133.5,-9.0125
133.75,-9.01622
134,-9.02039
134.25,-9.02503
134.5,-9.03015
134.75,-9.03575
135,-9.04185
135.25,-9.04847
135.5,-9.0556
135.75,-9.06326
136,-9.07147
136.25,-9.08022
136.5,-9.08955
136.75,-9.09945
137,-9.10993
137.25,-9.12102
137.5,-9.13272
137.75,-9.14505
138,-9.15801
138.25,-9.17162
138.5,-9.18589
138.75,-9.20084
139,-9.21648
139.25,-9.23282
139.5,-9.24988
139.75,-9.26766
140,-9.28619
140.25,-9.30547
140.5,-9.32553
140.75,-9.34637
141,-9.368
141.25,-9.39045
141.5,-9.41372
141.75,-9.43782
142,-9.46277
142.25,-9.48859
142.5,-9.51527
142.75,-9.54283
143,-9.57127
143.25,-9.60061
143.5,-9.63084
143.75,-9.66197
144,-9.69399
144.25,-9.7269
144.5,-9.7607
144.75,-9.79535
145,-9.83085
145.25,-9.86716
145.5,-9.90425
145.75,-9.94207
146,-9.98057
146.25,-10.0197
146.5,-10.0593
146.75,-10.0993
147,-10.1396
147.25,-10.1801
147.5,-10.2205
147.75,-10.2607
148,-10.3005
148.25,-10.3396
148.5,-10.3777
148.75,-10.4145
149,-10.4497
149.25,-10.4828
149.5,-10.5135
149.75,-10.5414
150,-10.566
150.25,-10.5869
150.5,-10.6037
150.75,-10.616
151,-10.6235
151.25,-10.626
151.5,-10.6232
151.75,-10.6151
152,-10.6016
152.25,-10.5829
152.5,-10.5591
152.75,-10.5305
153,-10.4973
153.25,-10.46
153.5,-10.4189
153.75,-10.3745
154,-10.3271
154.25,-10.2773
154.5,-10.2254
154.75,-10.1718
155,-10.1169
155.25,-10.0609
155.5,-10.0042
155.75,-9.94703
156,-9.8896
156.25,-9.83213
156.5,-9.77478
156.75,-9.71771
157,-9.66103
157.25,-9.60486
157.5,-9.54929
157.75,-9.49438
158,-9.44019
158.25,-9.38679
158.5,-9.3342
158.75,-9.28245
159,-9.23157
159.25,-9.18157
159.5,-9.13247
159.75,-9.08427
160,-9.03698
160.25,-8.99059
160.5,-8.9451
160.75,-8.90052
161,-8.85682
161.25,-8.814
161.5,-8.77206
161.75,-8.73098
162,-8.69076
162.25,-8.65137
162.5,-8.61282
162.75,-8.57508
163,-8.53815
163.25,-8.50201
163.5,-8.46666
163.75,-8.43207
164,-8.39824
164.25,-8.36515
164.5,-8.3328
164.75,-8.30117
165,-8.27024
165.25,-8.24002
165.5,-8.21048
165.75,-8.18162
166,-8.15343
166.25,-8.12589
166.5,-8.09901
166.75,-8.07275
167,-8.04713
167.25,-8.02213
167.5,-7.99773
167.75,-7.97394
168,-7.95075
168.25,-7.92813
168.5,-7.9061
168.75,-7.88464
169,-7.86374
169.25,-7.8434
169.5,-7.82361
169.75,-7.80436
170,-7.78566
170.25,-7.76748
170.5,-7.74983
170.75,-7.7327
171,-7.71608
171.25,-7.69998
171.5,-7.68438
171.75,-7.66928
172,-7.65468
172.25,-7.64057
172.5,-7.62694
172.75,-7.6138
173,-7.60114
173.25,-7.58896
173.5,-7.57724
173.75,-7.566
174,-7.55522
174.25,-7.5449
174.5,-7.53505
174.75,-7.52565
175,-7.5167
175.25,-7.50821
175.5,-7.50016
175.75,-7.49256
176,-7.48541
176.25,-7.4787
176.5,-7.47243
176.75,-7.4666
177,-7.46121
177.25,-7.45626
177.5,-7.45174
177.75,-7.44766
178,-7.444
178.25,-7.44078
178.5,-7.438
178.75,-7.43564
179,-7.43371
179.25,-7.43221
179.5,-7.43114
179.75,-7.4305
