angle,rsp
0,-6.85141
0.5,-6.85309
1,-6.85814
1.5,-6.86651
2,-6.87809
2.5,-6.89279
3,-6.91045
3.5,-6.9309
4,-6.95393
4.5,-6.97933
5,-7.00685
5.5,-7.03625
6,-7.06728
6.5,-7.09971
7,-7.13331
7.5,-7.16792
8,-7.20338
8.5,-7.23961
9,-7.27658
9.5,-7.31436
10,-7.35305
10.5,-7.39287
11,-7.43409
11.5,-7.47708
12,-7.52227
12.5,-7.57015
13,-7.62126
13.5,-7.67623
14,-7.73569
14.5,-7.80035
15,-7.87095
15.5,-7.94828
16,-8.0332
16.5,-8.12661
17,-8.22952
17.5,-8.34302
18,-8.46836
18.5,-8.60695
19,-8.7604
19.5,-8.93063
20,-9.11988
20.5,-9.33082
21,-9.56662
21.5,-9.83089
22,-10.1274
22.5,-10.4589
23,-10.8235
23.5,-11.2056
24,-11.5551
24.5,-11.7719
25,-11.765
25.5,-11.565
26,-11.2815
26.5,-10.9935
27,-10.7328
27.5,-10.5073
28,-10.3161
28.5,-10.1556
29,-10.0221
29.5,-9.9119
30,-9.82186
30.5,-9.74918
31,-9.69134
31.5,-9.64605
32,-9.61114
32.5,-9.58454
33,-9.56425
33.5,-9.54836
34,-9.53507
34.5,-9.52272
35,-9.50993
35.5,-9.49563
36,-9.47915
36.5,-9.46024
37,-9.4391
37.5,-9.41635
38,-9.39291
38.5,-9.36997
39,-9.34887
39.5,-9.33102
40,-9.31784
40.5,-9.31073
41,-9.31102
41.5,-9.32002
42,-9.33898
42.5,-9.36917
43,-9.41186
43.5,-9.4684
44,-9.54028
44.5,-9.62916
45,-9.73697
45.5,-9.86597
46,-10.0189
46.5,-10.199
47,-10.4099
47.5,-10.6559
48,-10.9399
48.5,-11.2607
49,-11.6024
49.5,-11.9125
50,-12.0831
50.5,-12.0178
51,-11.7559
51.5,-11.4165
52,-11.0793
52.5,-10.7746
53,-10.509
53.5,-10.281
54,-10.0868
54.5,-9.92276
55,-9.78561
55.5,-9.67267
56,-9.5818
56.5,-9.51128
57,-9.45977
57.5,-9.4262
58,-9.40971
58.5,-9.40961
59,-9.4253
59.5,-9.45621
60,-9.50174
60.5,-9.5611
61,-9.63323
61.5,-9.71654
62,-9.80871
62.5,-9.9063
63,-10.0045
63.5,-10.0969
64,-10.1758
64.5,-10.2331
65,-10.262
65.5,-10.2588
66,-10.2246
66.5,-10.1645
67,-10.086
67.5,-9.9975
68,-9.90616
68.5,-9.81782
69,-9.73675
69.5,-9.66592
70,-9.60734
70.5,-9.56235
71,-9.53181
71.5,-9.51632
72,-9.51624
72.5,-9.53179
73,-9.56303
73.5,-9.60979
74,-9.67155
74.5,-9.74722
75,-9.83473
75.5,-9.93058
76,-10.0291
76.5,-10.1218
77,-10.1973
77.5,-10.2425
78,-10.2459
78.5,-10.2018
79,-10.1127
79.5,-9.98857
80,-9.84211
80.5,-9.68547
81,-9.5281
81.5,-9.37651
82,-9.2348
82.5,-9.10535
83,-8.98946
83.5,-8.88773
84,-8.80038
84.5,-8.72741
85,-8.66873
85.5,-8.62423
86,-8.59379
86.5,-8.57734
87,-8.57485
87.5,-8.58634
88,-8.61186
88.5,-8.65145
89,-8.70517
89.5,-8.77294
90,-8.8545
90.5,-8.94923
91,-9.05584
91.5,-9.172
92,-9.29374
92.5,-9.41482
93,-9.52613
93.5,-9.61592
94,-9.67147
94.5,-9.68271
95,-9.64613
95.5,-9.56643
96,-9.45432
96.5,-9.32249
97,-9.18228
97.5,-9.04225
98,-8.90814
98.5,-8.78353
99,-8.67043
99.5,-8.56988
100,-8.48228
100.5,-8.40766
101,-8.34586
101.5,-8.29658
102,-8.25943
102.5,-8.23399
103,-8.21978
103.5,-8.21626
104,-8.22281
104.5,-8.23866
105,-8.2629
105.5,-8.29439
106,-8.33167
106.5,-8.37297
107,-8.41607
107.5,-8.4584
108,-8.497
108.5,-8.52876
109,-8.55067
109.5,-8.56021
110,-8.55571
110.5,-8.53668
111,-8.50386
111.5,-8.45909
112,-8.40498
112.5,-8.3445
113,-8.28063
113.5,-8.2161
114,-8.15325
114.5,-8.094
115,-8.03985
115.5,-7.99192
116,-7.95102
116.5,-7.91768
117,-7.89222
117.5,-7.87475
118,-7.86522
118.5,-7.86336
119,-7.86873
119.5,-7.88065
120,-7.8982
120.5,-7.92012
121,-7.94483
121.5,-7.97034
122,-7.99432
122.5,-8.0141
123,-8.02687
123.5,-8.02991
124,-8.02093
124.5,-7.99839
125,-7.96174
125.5,-7.91156
126,-7.84941
126.5,-7.77756
127,-7.69869
127.5,-7.61552
128,-7.53065
128.5,-7.44631
129,-7.36441
129.5,-7.28646
130,-7.21367
130.5,-7.14695
131,-7.08701
131.5,-7.03436
132,-6.98938
132.5,-6.95237
133,-6.92352
133.5,-6.90297
134,-6.89081
134.5,-6.88709
135,-6.89178
135.5,-6.9048
136,-6.92596
136.5,-6.95495
137,-6.99129
137.5,-7.03421
138,-7.08263
138.5,-7.13497
139,-7.18909
139.5,-7.24213
140,-7.29048
140.5,-7.32984
141,-7.35556
141.5,-7.36319
142,-7.34927
142.5,-7.31204
143,-7.25194
143.5,-7.17142
144,-7.07441
144.5,-6.96548
145,-6.84916
145.5,-6.72946
146,-6.60966
146.5,-6.4923
147,-6.37926
147.5,-6.27189
148,-6.17112
148.5,-6.0776
149,-5.99177
149.5,-5.91391
150,-5.84422
150.5,-5.78286
151,-5.72992
151.5,-5.68554
152,-5.64982
152.5,-5.62292
153,-5.605
153.5,-5.59628
154,-5.597
154.5,-5.60747
155,-5.62805
155.5,-5.65912
156,-5.70112
156.5,-5.75452
157,-5.81976
157.5,-5.8972
158,-5.98699
158.5,-6.08883
159,-6.20161
159.5,-6.32274
160,-6.44724
160.5,-6.56642
161,-6.66682
161.5,-6.73071
162,-6.73992
162.5,-6.68319
163,-6.56227
163.5,-6.39083
164,-6.18744
164.5,-5.9689
165,-5.74731
165.5,-5.53022
166,-5.32181
166.5,-5.12413
167,-4.93796
167.5,-4.76334
168,-4.59997
168.5,-4.44735
169,-4.30493
169.5,-4.17213
170,-4.0484
170.5,-3.93324
171,-3.82619
171.5,-3.72681
172,-3.63474
172.5,-3.54963
173,-3.47118
173.5,-3.39912
174,-3.33322
174.5,-3.27328
175,-3.21909
175.5,-3.17051
176,-3.12739
176.5,-3.08961
177,-3.05707
177.5,-3.02968
178,-3.00737
178.5,-2.99007
179,-2.97775
179.5,-2.97037
